# wavelength(micron) K_lam
    0.0912000      19.3985
    0.0962000      16.8980
     0.101200      14.9435
     0.106200      13.4020
     0.111200      12.1766
     0.116200      11.1961
     0.121200      10.4073
     0.126200      9.77036
     0.131200      9.25490
     0.136200      8.83785
     0.141200      8.50165
     0.146200      8.23298
     0.151200      8.02197
     0.156200      7.86162
     0.161200      7.74749
     0.166200      7.67761
     0.171200      7.65181
     0.176200      7.66495
     0.181200      7.72330
     0.186200      7.83916
     0.191200      8.02702
     0.196200      8.29935
     0.201200      8.65464
     0.206200      9.05395
     0.211200      9.39707
     0.216200      9.54309
     0.221200      9.40606
     0.226200      9.03229
     0.231200      8.54975
     0.236200      8.06824
     0.241200      7.64201
     0.246200      7.28436
     0.251200      6.98978
     0.256200      6.74725
     0.261200      6.54587
     0.266200      6.37654
     0.271200      6.22914
     0.276200      6.08907
     0.281200      5.96164
     0.286200      5.84520
     0.291200      5.73834
     0.296200      5.63985
     0.301200      5.54864
     0.306200      5.46378
     0.311200      5.38447
     0.316200      5.31001
     0.321200      5.23976
     0.326200      5.17319
     0.331200      5.10984
     0.336200      5.04929
     0.341200      4.99118
     0.346200      4.93520
     0.351200      4.88108
     0.356200      4.82856
     0.361200      4.77745
     0.366200      4.72756
     0.371200      4.67874
     0.376200      4.63083
     0.381200      4.58372
     0.386200      4.53731
     0.391200      4.49149
     0.396200      4.44620
     0.401200      4.40136
     0.406200      4.35691
     0.411200      4.31281
     0.416200      4.26896
     0.421200      4.22520
     0.426200      4.18136
     0.431200      4.13726
     0.436200      4.09280
     0.441200      4.04787
     0.446200      4.00236
     0.451200      3.95621
     0.456200      3.90935
     0.461200      3.86174
     0.466200      3.81333
     0.471200      3.76413
     0.476200      3.71435
     0.481200      3.66424
     0.486200      3.61404
     0.491200      3.56396
     0.496200      3.51418
     0.501200      3.46487
     0.506200      3.41617
     0.511200      3.36821
     0.516200      3.32110
     0.521200      3.27495
     0.526200      3.22982
     0.531200      3.18580
     0.536200      3.14295
     0.541200      3.10133
     0.546200      3.06097
     0.551200      3.02190
     0.556200      2.98404
     0.561200      2.94725
     0.566200      2.91143
     0.571200      2.87647
     0.576200      2.84228
     0.581200      2.80877
     0.586200      2.77587
     0.591200      2.74349
     0.596200      2.71159
     0.601200      2.68009
     0.606200      2.64895
     0.611200      2.61819
     0.616200      2.58779
     0.621200      2.55776
     0.626200      2.52811
     0.631200      2.49883
     0.636200      2.46993
     0.641200      2.44140
     0.646200      2.41324
     0.651200      2.38546
     0.656200      2.35805
     0.661200      2.33101
     0.666200      2.30434
     0.671200      2.27803
     0.676200      2.25208
     0.681200      2.22650
     0.686200      2.20127
     0.691200      2.17640
     0.696200      2.15188
     0.701200      2.12770
     0.706200      2.10387
     0.711200      2.08038
     0.716200      2.05722
     0.721200      2.03439
     0.726200      2.01190
     0.731200      1.98972
     0.736200      1.96787
     0.741200      1.94633
     0.746200      1.92511
     0.751200      1.90419
     0.756200      1.88358
     0.761200      1.86326
     0.766200      1.84325
     0.771200      1.82352
     0.776200      1.80408
     0.781200      1.78492
     0.786200      1.76604
     0.791200      1.74743
     0.796200      1.72910
     0.801200      1.71103
     0.806200      1.69323
     0.811200      1.67568
     0.816200      1.65839
     0.821200      1.64135
     0.826200      1.62455
     0.831200      1.60800
     0.836200      1.59169
     0.841200      1.57562
     0.846200      1.55977
     0.851200      1.54416
     0.856200      1.52877
     0.861200      1.51360
     0.866200      1.49865
     0.871200      1.48391
     0.876200      1.46939
     0.881200      1.45507
     0.886200      1.44095
     0.891200      1.42704
     0.896200      1.41333
     0.901200      1.39981
     0.906200      1.38648
     0.911200      1.37334
     0.916200      1.36038
     0.921200      1.34761
     0.926200      1.33502
     0.931200      1.32261
     0.936200      1.31036
     0.941200      1.29829
     0.946200      1.28639
     0.951200      1.27466
     0.956200      1.26309
     0.961200      1.25167
     0.966200      1.24042
     0.971200      1.22932
     0.976200      1.21838
     0.981200      1.20758
     0.986200      1.19694
     0.991200      1.18644
     0.996200      1.17608
      1.00120      1.16587
      1.00620      1.15579
      1.01120      1.14585
      1.01620      1.13605
      1.02120      1.12637
      1.02620      1.11683
      1.03120      1.10742
      1.03620      1.09813
      1.04120      1.08897
      1.04620      1.07993
      1.05120      1.07101
      1.05620      1.06221
      1.06120      1.05353
      1.06620      1.04496
      1.07120      1.03651
      1.07620      1.02817
      1.08120      1.01993
      1.08620      1.01181
      1.09120      1.00379
      1.09620     0.995876
      1.10120     0.988066
      1.10620     0.980358
      1.11120     0.972749
      1.11620     0.965240
      1.12120     0.957827
      1.12620     0.950510
      1.13120     0.943287
      1.13620     0.936157
      1.14120     0.929118
      1.14620     0.922170
      1.15120     0.915310
      1.15620     0.908537
      1.16120     0.901851
      1.16620     0.895249
      1.17120     0.888731
      1.17620     0.882294
      1.18120     0.875939
      1.18620     0.869664
      1.19120     0.863468
      1.19620     0.857349
      1.20120     0.851306
      1.20620     0.845339
      1.21120     0.839445
      1.21620     0.833625
      1.22120     0.827877
      1.22620     0.822200
      1.23120     0.816592
      1.23620     0.811053
      1.24120     0.805582
      1.24620     0.800176
      1.25120     0.794836
      1.25620     0.789560
      1.26120     0.784347
      1.26620     0.779195
      1.27120     0.774105
      1.27620     0.769074
      1.28120     0.764103
      1.28620     0.759190
      1.29120     0.754333
      1.29620     0.749533
      1.30120     0.744788
      1.30620     0.740097
      1.31120     0.735460
      1.31620     0.730876
      1.32120     0.726343
      1.32620     0.721861
      1.33120     0.717430
      1.33620     0.713048
      1.34120     0.708715
      1.34620     0.704429
      1.35120     0.700191
      1.35620     0.696000
      1.36120     0.691854
      1.36620     0.687753
      1.37120     0.683696
      1.37620     0.679684
      1.38120     0.675714
      1.38620     0.671787
      1.39120     0.667901
      1.39620     0.664057
      1.40120     0.660253
      1.40620     0.656489
      1.41120     0.652765
      1.41620     0.649079
      1.42120     0.645432
      1.42620     0.641822
      1.43120     0.638250
      1.43620     0.634714
      1.44120     0.631214
      1.44620     0.627750
      1.45120     0.624321
      1.45620     0.620926
      1.46120     0.617566
      1.46620     0.614239
      1.47120     0.610945
      1.47620     0.607685
      1.48120     0.604456
      1.48620     0.601259
      1.49120     0.598093
      1.49620     0.594959
      1.50120     0.591855
      1.50620     0.588780
      1.51120     0.585736
      1.51620     0.582721
      1.52120     0.579735
      1.52620     0.576777
      1.53120     0.573847
      1.53620     0.570946
      1.54120     0.568071
      1.54620     0.565224
      1.55120     0.562403
      1.55620     0.559608
      1.56120     0.556840
      1.56620     0.554097
      1.57120     0.551379
      1.57620     0.548687
      1.58120     0.546019
      1.58620     0.543375
      1.59120     0.540756
      1.59620     0.538160
      1.60120     0.535587
      1.60620     0.533038
      1.61120     0.530511
      1.61620     0.528007
      1.62120     0.525526
      1.62620     0.523066
      1.63120     0.520628
      1.63620     0.518211
      1.64120     0.515816
      1.64620     0.513441
      1.65120     0.511087
      1.65620     0.508754
      1.66120     0.506440
      1.66620     0.504147
      1.67120     0.501873
      1.67620     0.499619
      1.68120     0.497384
      1.68620     0.495168
      1.69120     0.492970
      1.69620     0.490792
      1.70120     0.488631
      1.70620     0.486489
      1.71120     0.484364
      1.71620     0.482257
      1.72120     0.480167
      1.72620     0.478095
      1.73120     0.476040
      1.73620     0.474002
      1.74120     0.471980
      1.74620     0.469975
      1.75120     0.467986
      1.75620     0.466013
      1.76120     0.464056
      1.76620     0.462115
      1.77120     0.460189
      1.77620     0.458279
      1.78120     0.456384
      1.78620     0.454504
      1.79120     0.452639
      1.79620     0.450788
      1.80120     0.448952
      1.80620     0.447130
      1.81120     0.445323
      1.81620     0.443530
      1.82120     0.441751
      1.82620     0.439985
      1.83120     0.438233
      1.83620     0.436494
      1.84120     0.434769
      1.84620     0.433056
      1.85120     0.431357
      1.85620     0.429671
      1.86120     0.427998
      1.86620     0.426337
      1.87120     0.424688
      1.87620     0.423052
      1.88120     0.421428
      1.88620     0.419816
      1.89120     0.418216
      1.89620     0.416628
      1.90120     0.415052
      1.90620     0.413487
      1.91120     0.411934
      1.91620     0.410392
      1.92120     0.408861
      1.92620     0.407341
      1.93120     0.405833
      1.93620     0.404335
      1.94120     0.402848
      1.94620     0.401371
      1.95120     0.399906
      1.95620     0.398450
      1.96120     0.397006
      1.96620     0.395571
      1.97120     0.394146
      1.97620     0.392731
      1.98120     0.391327
      1.98620     0.389932
      1.99120     0.388547
      1.99620     0.387171
      2.00120     0.385805
      2.00620     0.384449
      2.01120     0.383102
      2.01620     0.381764
      2.02120     0.380435
      2.02620     0.379115
      2.03120     0.377805
      2.03620     0.376503
      2.04120     0.375210
      2.04620     0.373926
      2.05120     0.372650
      2.05620     0.371383
      2.06120     0.370125
      2.06620     0.368875
      2.07120     0.367633
      2.07620     0.366400
      2.08120     0.365175
      2.08620     0.363957
      2.09120     0.362748
      2.09620     0.361547
      2.10120     0.360353
      2.10620     0.359168
      2.11120     0.357990
      2.11620     0.356820
      2.12120     0.355657
      2.12620     0.354502
      2.13120     0.353354
      2.13620     0.352214
      2.14120     0.351081
      2.14620     0.349955
      2.15120     0.348837
      2.15620     0.347725
      2.16120     0.346621
      2.16620     0.345523
      2.17120     0.344433
      2.17620     0.343349
      2.18120     0.342272
      2.18620     0.341202
      2.19120     0.340138
      2.19620     0.339082
      2.20120     0.338031
      2.20620     0.336987
      2.21120     0.335950
      2.21620     0.334919
      2.22120     0.333894
      2.22620     0.332876
      2.23120     0.331864
      2.23620     0.330858
      2.24120     0.329858
      2.24620     0.328864
      2.25120     0.327876
      2.25620     0.326894
      2.26120     0.325918
      2.26620     0.324948
      2.27120     0.323984
      2.27620     0.323025
      2.28120     0.322072
      2.28620     0.321125
      2.29120     0.320183
      2.29620     0.319247
      2.30120     0.318316
      2.30620     0.317391
      2.31120     0.316472
      2.31620     0.315557
      2.32120     0.314648
      2.32620     0.313744
      2.33120     0.312846
      2.33620     0.311953
      2.34120     0.311064
      2.34620     0.310181
      2.35120     0.309303
      2.35620     0.308430
      2.36120     0.307562
      2.36620     0.306700
      2.37120     0.305841
      2.37620     0.304988
      2.38120     0.304140
      2.38620     0.303296
      2.39120     0.302457
      2.39620     0.301623
      2.40120     0.300793
      2.40620     0.299968
      2.41120     0.299148
      2.41620     0.298332
      2.42120     0.297521
      2.42620     0.296715
      2.43120     0.295912
      2.43620     0.295115
      2.44120     0.294321
      2.44620     0.293532
      2.45120     0.292747
      2.45620     0.291966
      2.46120     0.291190
      2.46620     0.290418
      2.47120     0.289650
      2.47620     0.288887
      2.48120     0.288127
      2.48620     0.287371
      2.49120     0.286620
      2.49620     0.285872
      2.50120     0.285129
      2.50620     0.284389
      2.51120     0.283653
      2.51620     0.282922
      2.52120     0.282194
      2.52620     0.281470
      2.53120     0.280750
      2.53620     0.280034
      2.54120     0.279321
      2.54620     0.278612
      2.55120     0.277907
      2.55620     0.277205
      2.56120     0.276507
      2.56620     0.275813
      2.57120     0.275122
      2.57620     0.274435
      2.58120     0.273751
      2.58620     0.273071
      2.59120     0.272395
      2.59620     0.271721
      2.60120     0.271052
      2.60620     0.270385
      2.61120     0.269722
      2.61620     0.269063
      2.62120     0.268406
      2.62620     0.267754
      2.63120     0.267104
      2.63620     0.266457
      2.64120     0.265814
      2.64620     0.265174
      2.65120     0.264538
      2.65620     0.263904
      2.66120     0.263273
      2.66620     0.262646
      2.67120     0.262022
      2.67620     0.261401
      2.68120     0.260782
      2.68620     0.260167
      2.69120     0.259555
      2.69620     0.258946
      2.70120     0.258340
      2.70620     0.257737
      2.71120     0.257137
      2.71620     0.256539
      2.72120     0.255945
      2.72620     0.255353
      2.73120     0.254764
      2.73620     0.254178
      2.74120     0.253595
      2.74620     0.253015
      2.75120     0.252437
      2.75620     0.251862
      2.76120     0.251290
      2.76620     0.250720
      2.77120     0.250153
      2.77620     0.249589
      2.78120     0.249027
      2.78620     0.248469
      2.79120     0.247912
      2.79620     0.247359
      2.80120     0.246807
      2.80620     0.246259
      2.81120     0.245713
      2.81620     0.245169
      2.82120     0.244628
      2.82620     0.244089
      2.83120     0.243553
      2.83620     0.243020
      2.84120     0.242488
      2.84620     0.241959
      2.85120     0.241433
      2.85620     0.240909
      2.86120     0.240387
      2.86620     0.239868
      2.87120     0.239351
      2.87620     0.238836
      2.88120     0.238323
      2.88620     0.237813
      2.89120     0.237305
      2.89620     0.236800
      2.90120     0.236296
      2.90620     0.235795
      2.91120     0.235296
      2.91620     0.234799
      2.92120     0.234305
      2.92620     0.233813
      2.93120     0.233322
      2.93620     0.232834
      2.94120     0.232348
      2.94620     0.231864
      2.95120     0.231382
      2.95620     0.230902
      2.96120     0.230425
      2.96620     0.229949
      2.97120     0.229476
      2.97620     0.229004
      2.98120     0.228534
      2.98620     0.228067
      2.99120     0.227602
      2.99620     0.227138
      3.00120     0.226676
      3.00620     0.226217
      3.01120     0.225759
      3.01620     0.225303
      3.02120     0.224849
      3.02620     0.224397
      3.03120     0.223947
      3.03620     0.223499
      3.04120     0.223053
      3.04620     0.222608
      3.05120     0.222165
      3.05620     0.221725
      3.06120     0.221286
      3.06620     0.220848
      3.07120     0.220413
      3.07620     0.219979
      3.08120     0.219547
      3.08620     0.219117
      3.09120     0.218689
      3.09620     0.218262
      3.10120     0.217837
      3.10620     0.217414
      3.11120     0.216993
      3.11620     0.216573
      3.12120     0.216155
      3.12620     0.215739
      3.13120     0.215324
      3.13620     0.214911
      3.14120     0.214499
      3.14620     0.214090
      3.15120     0.213681
      3.15620     0.213275
      3.16120     0.212870
      3.16620     0.212467
      3.17120     0.212065
      3.17620     0.211665
      3.18120     0.211266
      3.18620     0.210869
      3.19120     0.210474
      3.19620     0.210080
      3.20120     0.209687
      3.20620     0.209297
      3.21120     0.208907
      3.21620     0.208519
      3.22120     0.208133
      3.22620     0.207748
      3.23120     0.207365
      3.23620     0.206983
      3.24120     0.206602
      3.24620     0.206223
      3.25120     0.205846
      3.25620     0.205470
      3.26120     0.205095
      3.26620     0.204722
      3.27120     0.204350
      3.27620     0.203979
      3.28120     0.203610
      3.28620     0.203243
      3.29120     0.202877
      3.29620     0.202512
      3.30120     0.202148
      3.30620     0.201786
      3.31120     0.201425
      3.31620     0.201066
      3.32120     0.200707
      3.32620     0.200351
      3.33120     0.199995
      3.33620     0.199641
      3.34120     0.199288
      3.34620     0.198936
      3.35120     0.198586
      3.35620     0.198237
      3.36120     0.197889
      3.36620     0.197543
      3.37120     0.197197
      3.37620     0.196853
      3.38120     0.196511
      3.38620     0.196169
      3.39120     0.195829
      3.39620     0.195490
      3.40120     0.195152
      3.40620     0.194815
      3.41120     0.194480
      3.41620     0.194146
      3.42120     0.193813
      3.42620     0.193481
      3.43120     0.193151
      3.43620     0.192821
      3.44120     0.192493
      3.44620     0.192166
      3.45120     0.191840
      3.45620     0.191515
      3.46120     0.191191
      3.46620     0.190869
      3.47120     0.190547
      3.47620     0.190227
      3.48120     0.189908
      3.48620     0.189590
      3.49120     0.189273
      3.49620     0.188957
      3.50120     0.188642
      3.50620     0.188329
      3.51120     0.188016
      3.51620     0.187704
      3.52120     0.187394
      3.52620     0.187085
      3.53120     0.186776
      3.53620     0.186469
      3.54120     0.186163
      3.54620     0.185858
      3.55120     0.185554
      3.55620     0.185251
      3.56120     0.184948
      3.56620     0.184648
      3.57120     0.184347
      3.57620     0.184048
      3.58120     0.183750
      3.58620     0.183454
      3.59120     0.183157
      3.59620     0.182863
      3.60120     0.182569
      3.60620     0.182276
      3.61120     0.181983
      3.61620     0.181692
      3.62120     0.181402
      3.62620     0.181113
      3.63120     0.180825
      3.63620     0.180538
      3.64120     0.180251
      3.64620     0.179966
      3.65120     0.179682
      3.65620     0.179398
      3.66120     0.179116
      3.66620     0.178834
      3.67120     0.178553
      3.67620     0.178273
      3.68120     0.177994
      3.68620     0.177716
      3.69120     0.177439
      3.69620     0.177163
      3.70120     0.176888
      3.70620     0.176614
      3.71120     0.176340
      3.71620     0.176067
      3.72120     0.175796
      3.72620     0.175525
      3.73120     0.175255
      3.73620     0.174986
      3.74120     0.174717
      3.74620     0.174450
      3.75120     0.174183
      3.75620     0.173918
      3.76120     0.173653
      3.76620     0.173388
      3.77120     0.173125
      3.77620     0.172863
      3.78120     0.172601
